# 4.0e4 K blackbody, physical units for par%spectrum_type='per_ang'
# col1 lambda [A] (ascending)   col2 L_lambda [erg/s/A]
# ionizing-segment (13.598-100 eV) integral = 3.177837e+38 erg/s
9.00000000e+01 1.47568237e+25
9.09531370e+01 2.12818185e+25
9.19163681e+01 3.05575452e+25
9.28898003e+01 4.36859760e+25
9.38735414e+01 6.21869478e+25
9.48677008e+01 8.81474228e+25
9.58723888e+01 1.24420668e+26
9.68877168e+01 1.74890863e+26
9.79137976e+01 2.44823073e+26
9.89507450e+01 3.41324099e+26
9.99986740e+01 4.73946696e+26
1.01057701e+02 6.55478343e+26
1.02127944e+02 9.02966549e+26
1.03209521e+02 1.23904598e+27
1.04302552e+02 1.69364904e+27
1.05407159e+02 2.30620152e+27
1.06523464e+02 3.12842930e+27
1.07651591e+02 4.22793136e+27
1.08791666e+02 5.69270998e+27
1.09943814e+02 7.63689141e+27
1.11108165e+02 1.02079209e+28
1.12284846e+02 1.35955764e+28
1.13473988e+02 1.80432163e+28
1.14675725e+02 2.38617596e+28
1.15890188e+02 3.14469963e+28
1.17117512e+02 4.13009371e+28
1.18357835e+02 5.40580474e+28
1.19611293e+02 7.05173571e+28
1.20878026e+02 9.16816190e+28
1.22158174e+02 1.18804881e+29
1.23451879e+02 1.53450068e+29
1.24759285e+02 1.97558425e+29
1.26080538e+02 2.53532947e+29
1.27415782e+02 3.24338273e+29
1.28765168e+02 4.13619827e+29
1.30128844e+02 5.25845439e+29
1.31506962e+02 6.66473056e+29
1.32899675e+02 8.42148668e+29
1.34307137e+02 1.06093905e+30
1.35729505e+02 1.33260449e+30
1.37166936e+02 1.66891727e+30
1.38619590e+02 2.08403220e+30
1.40087629e+02 2.59491639e+30
1.41571214e+02 3.22184578e+30
1.43070512e+02 3.98897697e+30
1.44585687e+02 4.92500353e+30
1.46116909e+02 6.06390652e+30
1.47664347e+02 7.44580998e+30
1.49228173e+02 9.11795267e+30
1.50808561e+02 1.11357880e+31
1.52405686e+02 1.35642252e+31
1.54019725e+02 1.64790239e+31
1.55650857e+02 1.99683581e+31
1.57299263e+02 2.41345611e+31
1.58965127e+02 2.90960679e+31
1.60648633e+02 3.49895692e+31
1.62349968e+02 4.19723916e+31
1.64069321e+02 5.02251188e+31
1.65806883e+02 5.99544683e+31
1.67562846e+02 7.13964369e+31
1.69337405e+02 8.48197285e+31
1.71130758e+02 1.00529476e+32
1.72943103e+02 1.18871265e+32
1.74774642e+02 1.40235477e+32
1.76625577e+02 1.65061945e+32
1.78496115e+02 1.93844939e+32
1.80386462e+02 2.27138475e+32
1.82296829e+02 2.65561952e+32
1.84227427e+02 3.09806112e+32
1.86178471e+02 3.60639306e+32
1.88150178e+02 4.18914066e+32
1.90142766e+02 4.85573968e+32
1.92156456e+02 5.61660746e+32
1.94191472e+02 6.48321654e+32
1.96248039e+02 7.46817034e+32
1.98326386e+02 8.58528055e+32
2.00426744e+02 9.84964585e+32
2.02549346e+02 1.12777314e+33
2.04694427e+02 1.28874487e+33
2.06862225e+02 1.46982352e+33
2.09052981e+02 1.67311331e+33
2.11266938e+02 1.90088663e+33
2.13504342e+02 2.15559153e+33
2.15765441e+02 2.43985890e+33
2.18050485e+02 2.75650925e+33
2.20359730e+02 3.10855901e+33
2.22693430e+02 3.49922631e+33
2.25051845e+02 3.93193603e+33
2.27435236e+02 4.41032416e+33
2.29843869e+02 4.93824131e+33
2.32278010e+02 5.51975525e+33
2.34737930e+02 6.15915249e+33
2.37223901e+02 6.86093864e+33
2.39736200e+02 7.62983767e+33
2.42275105e+02 8.47078977e+33
2.44840898e+02 9.38894793e+33
2.47433863e+02 1.03896730e+34
2.50054290e+02 1.14785272e+34
2.52702467e+02 1.26612663e+34
2.55378691e+02 1.39438296e+34
2.58083256e+02 1.53323292e+34
2.60816464e+02 1.68330362e+34
2.63578617e+02 1.84523668e+34
2.66370023e+02 2.01968651e+34
2.69190991e+02 2.20731852e+34
2.72041835e+02 2.40880714e+34
2.74922869e+02 2.62483364e+34
2.77834416e+02 2.85608382e+34
2.80776796e+02 3.10324550e+34
2.83750338e+02 3.36700595e+34
2.86755371e+02 3.64804904e+34
2.89792228e+02 3.94705240e+34
2.92861247e+02 4.26468439e+34
2.95962768e+02 4.60160094e+34
2.99097135e+02 4.95844235e+34
3.02264697e+02 5.33583000e+34
3.05465805e+02 5.73436300e+34
3.08700813e+02 6.15461475e+34
3.11970082e+02 6.59712955e+34
3.15273973e+02 7.06241917e+34
3.18612854e+02 7.55095942e+34
3.21987095e+02 8.06318677e+34
3.25397071e+02 8.59949502e+34
3.28843160e+02 9.16023205e+34
3.32325744e+02 9.74569668e+34
3.35845210e+02 1.03561356e+35
3.39401949e+02 1.09917404e+35
3.42996355e+02 1.16526450e+35
3.46628828e+02 1.23389230e+35
3.50299770e+02 1.30505851e+35
3.54009588e+02 1.37875773e+35
3.57758695e+02 1.45497786e+35
3.61547507e+02 1.53369995e+35
3.65376444e+02 1.61489806e+35
3.69245930e+02 1.69853912e+35
3.73156397e+02 1.78458286e+35
3.77108276e+02 1.87298174e+35
3.81102008e+02 1.96368094e+35
3.85138035e+02 2.05661832e+35
3.89216805e+02 2.15172448e+35
3.93338771e+02 2.24892282e+35
3.97504391e+02 2.34812961e+35
4.01714125e+02 2.44925414e+35
4.05968443e+02 2.55219887e+35
4.10267816e+02 2.65685958e+35
4.14612721e+02 2.76312563e+35
4.19003640e+02 2.87088017e+35
4.23441061e+02 2.98000041e+35
4.27925476e+02 3.09035795e+35
4.32457383e+02 3.20181904e+35
4.37037284e+02 3.31424499e+35
4.41665689e+02 3.42749247e+35
4.46343110e+02 3.54141395e+35
4.51070067e+02 3.65585809e+35
4.55847084e+02 3.77067012e+35
4.60674693e+02 3.88569235e+35
4.65553427e+02 4.00076455e+35
4.70483829e+02 4.11572444e+35
4.75466446e+02 4.23040815e+35
4.80501832e+02 4.34465071e+35
4.85590544e+02 4.45828648e+35
4.90733147e+02 4.57114969e+35
4.95930213e+02 4.68307486e+35
5.01182318e+02 4.79389730e+35
5.06490045e+02 4.90345361e+35
5.11853982e+02 5.01158206e+35
5.17274727e+02 5.11812315e+35
5.22752879e+02 5.22291996e+35
5.28289047e+02 5.32581866e+35
5.33883845e+02 5.42666885e+35
5.39537894e+02 5.52532404e+35
5.45251822e+02 5.62164196e+35
5.51026263e+02 5.71548499e+35
5.56861858e+02 5.80672047e+35
5.62759254e+02 5.89522102e+35
5.68719106e+02 5.98086487e+35
5.74742075e+02 6.06353613e+35
5.80828830e+02 6.14312502e+35
5.86980046e+02 6.21952815e+35
5.93196406e+02 6.29264868e+35
5.99478600e+02 6.36239654e+35
6.05827325e+02 6.42868858e+35
6.12243286e+02 6.49144865e+35
6.18727194e+02 6.55060780e+35
6.25279769e+02 6.60610428e+35
6.31901739e+02 6.65788364e+35
6.38593838e+02 6.70589875e+35
6.45356810e+02 6.75010980e+35
6.52191403e+02 6.79048428e+35
6.59098379e+02 6.82699699e+35
6.66078501e+02 6.85962990e+35
6.73132547e+02 6.88837214e+35
6.80261297e+02 6.91321984e+35
6.87465544e+02 6.93417608e+35
6.94746087e+02 6.95125065e+35
7.02103734e+02 6.96446001e+35
7.09539301e+02 6.97382701e+35
7.17053614e+02 6.97938077e+35
7.24647506e+02 6.98115646e+35
7.32321821e+02 6.97919508e+35
7.40077411e+02 6.97354322e+35
7.47915135e+02 6.96425285e+35
7.55835864e+02 6.95138109e+35
7.63840476e+02 6.93498988e+35
7.71929861e+02 6.91514582e+35
7.80104915e+02 6.89191983e+35
7.88366547e+02 6.86538690e+35
7.96715673e+02 6.83562585e+35
8.05153220e+02 6.80271900e+35
8.13680123e+02 6.76675194e+35
8.22297331e+02 6.72781322e+35
8.31005797e+02 6.68599409e+35
8.39806490e+02 6.64138824e+35
8.48700387e+02 6.59409148e+35
8.57688473e+02 6.54420155e+35
8.66771746e+02 6.49181777e+35
8.75951215e+02 6.43704084e+35
8.85227899e+02 6.37997257e+35
8.94602826e+02 6.32071562e+35
9.04077038e+02 6.25937327e+35
9.13651586e+02 6.19604921e+35
9.23327532e+02 6.13084726e+35
9.33105950e+02 6.06387122e+35
9.42987926e+02 5.99522458e+35
9.52974556e+02 5.92501040e+35
9.63066948e+02 5.85333108e+35
9.73266223e+02 5.78028817e+35
9.83573512e+02 5.70598221e+35
9.93989960e+02 5.63051259e+35
1.00451672e+03 5.55397734e+35
1.01515497e+03 5.47647304e+35
1.02590588e+03 5.39809466e+35
1.03677064e+03 5.31893544e+35
1.04775047e+03 5.23908679e+35
1.05884658e+03 5.15863814e+35
1.07006020e+03 5.07767690e+35
1.08139258e+03 4.99628834e+35
1.09284497e+03 4.91455551e+35
1.10441864e+03 4.83255919e+35
1.11611489e+03 4.75037781e+35
1.12793501e+03 4.66808742e+35
1.13988030e+03 4.58576159e+35
1.15195210e+03 4.50347147e+35
1.16415175e+03 4.42128567e+35
1.17648060e+03 4.33927026e+35
1.18894001e+03 4.25748880e+35
1.20153137e+03 4.17600227e+35
1.21425609e+03 4.09486910e+35
1.22711556e+03 4.01414518e+35
1.24011121e+03 3.93388385e+35
1.25324450e+03 3.85413590e+35
1.26651688e+03 3.77494964e+35
1.27992981e+03 3.69637088e+35
1.29348479e+03 3.61844296e+35
1.30718333e+03 3.54120682e+35
1.32102694e+03 3.46470097e+35
1.33501716e+03 3.38896161e+35
1.34915554e+03 3.31402261e+35
1.36344365e+03 3.23991556e+35
1.37788308e+03 3.16666987e+35
1.39247543e+03 3.09431276e+35
1.40722232e+03 3.02286933e+35
1.42212538e+03 2.95236265e+35
1.43718627e+03 2.88281374e+35
1.45240666e+03 2.81424172e+35
1.46778825e+03 2.74666378e+35
1.48333273e+03 2.68009532e+35
1.49904183e+03 2.61454992e+35
1.51491730e+03 2.55003950e+35
1.53096090e+03 2.48657428e+35
1.54717440e+03 2.42416294e+35
1.56355962e+03 2.36281259e+35
1.58011836e+03 2.30252888e+35
1.59685246e+03 2.24331607e+35
1.61376378e+03 2.18517706e+35
1.63085421e+03 2.12811344e+35
1.64812562e+03 2.07212561e+35
1.66557995e+03 2.01721277e+35
1.68321913e+03 1.96337300e+35
1.70104511e+03 1.91060334e+35
1.71905988e+03 1.85889981e+35
1.73726543e+03 1.80825748e+35
1.75566378e+03 1.75867052e+35
1.77425698e+03 1.71013228e+35
1.79304710e+03 1.66263529e+35
1.81203620e+03 1.61617132e+35
1.83122641e+03 1.57073148e+35
1.85061985e+03 1.52630621e+35
1.87021868e+03 1.48288533e+35
1.89002506e+03 1.44045812e+35
1.91004120e+03 1.39901332e+35
1.93026933e+03 1.35853922e+35
1.95071167e+03 1.31902363e+35
1.97137051e+03 1.28045400e+35
1.99224813e+03 1.24281739e+35
2.01334686e+03 1.20610054e+35
2.03466903e+03 1.17028990e+35
2.05621701e+03 1.13537163e+35
2.07799320e+03 1.10133171e+35
2.10000000e+03 1.06815588e+35
