# spectrum_type=per_ev (external)  col1 E [eV]  col2 J_E [erg/s/cm^2/sr/eV]; ionizing int = 1e-5
1.00000000e+01 1.53545920e-06
1.00602786e+01 1.53474385e-06
1.01209205e+01 1.53388639e-06
1.01819280e+01 1.53288598e-06
1.02433032e+01 1.53174182e-06
1.03050483e+01 1.53045314e-06
1.03671657e+01 1.52901923e-06
1.04296575e+01 1.52743940e-06
1.04925260e+01 1.52571299e-06
1.05557734e+01 1.52383940e-06
1.06194021e+01 1.52181806e-06
1.06834144e+01 1.51964844e-06
1.07478125e+01 1.51733005e-06
1.08125988e+01 1.51486247e-06
1.08777756e+01 1.51224528e-06
1.09433453e+01 1.50947814e-06
1.10093102e+01 1.50656074e-06
1.10756727e+01 1.50349282e-06
1.11424353e+01 1.50027416e-06
1.12096003e+01 1.49690459e-06
1.12771702e+01 1.49338400e-06
1.13451474e+01 1.48971233e-06
1.14135343e+01 1.48588954e-06
1.14823335e+01 1.48191567e-06
1.15515473e+01 1.47779081e-06
1.16211784e+01 1.47351508e-06
1.16912292e+01 1.46908867e-06
1.17617023e+01 1.46451183e-06
1.18326001e+01 1.45978484e-06
1.19039254e+01 1.45490804e-06
1.19756805e+01 1.44988185e-06
1.20478682e+01 1.44470671e-06
1.21204911e+01 1.43938314e-06
1.21935516e+01 1.43391170e-06
1.22670526e+01 1.42829301e-06
1.23409967e+01 1.42252775e-06
1.24153865e+01 1.41661666e-06
1.24902246e+01 1.41056053e-06
1.25655139e+01 1.40436020e-06
1.26412571e+01 1.39801659e-06
1.27174567e+01 1.39153066e-06
1.27941158e+01 1.38490343e-06
1.28712369e+01 1.37813597e-06
1.29488228e+01 1.37122944e-06
1.30268765e+01 1.36418502e-06
1.31054007e+01 1.35700396e-06
1.31843981e+01 1.34968759e-06
1.32638718e+01 1.34223725e-06
1.33438245e+01 1.33465439e-06
1.34242592e+01 1.32694049e-06
1.35051787e+01 1.31909708e-06
1.35865860e+01 1.31112577e-06
1.36684840e+01 1.30302821e-06
1.37508757e+01 1.29480610e-06
1.38337640e+01 1.28646122e-06
1.39171520e+01 1.27799539e-06
1.40010426e+01 1.26941049e-06
1.40854389e+01 1.26070844e-06
1.41703439e+01 1.25189124e-06
1.42557607e+01 1.24296091e-06
1.43416924e+01 1.23391955e-06
1.44281421e+01 1.22476931e-06
1.45151129e+01 1.21551237e-06
1.46026079e+01 1.20615098e-06
1.46906303e+01 1.19668744e-06
1.47791834e+01 1.18712408e-06
1.48682702e+01 1.17746330e-06
1.49578940e+01 1.16770752e-06
1.50480580e+01 1.15785924e-06
1.51387656e+01 1.14792098e-06
1.52300199e+01 1.13789531e-06
1.53218243e+01 1.12778483e-06
1.54141821e+01 1.11759221e-06
1.55070966e+01 1.10732013e-06
1.56005711e+01 1.09697132e-06
1.56946091e+01 1.08654856e-06
1.57892140e+01 1.07605464e-06
1.58843891e+01 1.06549241e-06
1.59801380e+01 1.05486472e-06
1.60764640e+01 1.04417449e-06
1.61733706e+01 1.03342465e-06
1.62708614e+01 1.02261816e-06
1.63689398e+01 1.01175800e-06
1.64676094e+01 1.00084718e-06
1.65668739e+01 9.89888746e-07
1.66667366e+01 9.78885746e-07
1.67672013e+01 9.67841259e-07
1.68682716e+01 9.56758379e-07
1.69699512e+01 9.45640217e-07
1.70722436e+01 9.34489898e-07
1.71751526e+01 9.23310562e-07
1.72786820e+01 9.12105357e-07
1.73828355e+01 9.00877441e-07
1.74876167e+01 8.89629978e-07
1.75930296e+01 8.78366141e-07
1.76990778e+01 8.67089101e-07
1.78057654e+01 8.55802035e-07
1.79130960e+01 8.44508115e-07
1.80210736e+01 8.33210514e-07
1.81297020e+01 8.21912398e-07
1.82389853e+01 8.10616927e-07
1.83489273e+01 7.99327254e-07
1.84595320e+01 7.88046519e-07
1.85708034e+01 7.76777850e-07
1.86827456e+01 7.65524363e-07
1.87953625e+01 7.54289153e-07
1.89086583e+01 7.43075301e-07
1.90226370e+01 7.31885864e-07
1.91373027e+01 7.20723878e-07
1.92526597e+01 7.09592355e-07
1.93687119e+01 6.98494281e-07
1.94854638e+01 6.87432611e-07
1.96029194e+01 6.76410273e-07
1.97210830e+01 6.65430162e-07
1.98399589e+01 6.54495138e-07
1.99595513e+01 6.43608028e-07
2.00798646e+01 6.32771618e-07
2.02009032e+01 6.21988657e-07
2.03226714e+01 6.11261853e-07
2.04451735e+01 6.00593871e-07
2.05684141e+01 5.89987330e-07
2.06923976e+01 5.79444806e-07
2.08171284e+01 5.68968825e-07
2.09426111e+01 5.58561865e-07
2.10688502e+01 5.48226353e-07
2.11958502e+01 5.37964664e-07
2.13236157e+01 5.27779120e-07
2.14521515e+01 5.17671986e-07
2.15814620e+01 5.07645473e-07
2.17115520e+01 4.97701735e-07
2.18424261e+01 4.87842865e-07
2.19740891e+01 4.78070898e-07
2.21065458e+01 4.68387807e-07
2.22398009e+01 4.58795504e-07
2.23738593e+01 4.49295837e-07
2.25087257e+01 4.39890591e-07
2.26444051e+01 4.30581486e-07
2.27809023e+01 4.21370176e-07
2.29182224e+01 4.12258249e-07
2.30563701e+01 4.03247227e-07
2.31953506e+01 3.94338563e-07
2.33351689e+01 3.85533643e-07
2.34758300e+01 3.76833784e-07
2.36173389e+01 3.68240233e-07
2.37597009e+01 3.59754170e-07
2.39029210e+01 3.51376703e-07
2.40470044e+01 3.43108872e-07
2.41919563e+01 3.34951647e-07
2.43377820e+01 3.26905925e-07
2.44844866e+01 3.18972538e-07
2.46320756e+01 3.11152244e-07
2.47805543e+01 3.03445732e-07
2.49299279e+01 2.95853622e-07
2.50802020e+01 2.88376466e-07
2.52313819e+01 2.81014743e-07
2.53834730e+01 2.73768868e-07
2.55364810e+01 2.66639183e-07
2.56904113e+01 2.59625967e-07
2.58452694e+01 2.52729429e-07
2.60010610e+01 2.45949711e-07
2.61577917e+01 2.39286892e-07
2.63154671e+01 2.32740983e-07
2.64740930e+01 2.26311933e-07
2.66336751e+01 2.19999627e-07
2.67942191e+01 2.13803886e-07
2.69557308e+01 2.07724471e-07
2.71182161e+01 2.01761084e-07
2.72816808e+01 1.95913365e-07
2.74461309e+01 1.90180897e-07
2.76115723e+01 1.84563206e-07
2.77780109e+01 1.79059763e-07
2.79454528e+01 1.73669982e-07
2.81139040e+01 1.68393227e-07
2.82833706e+01 1.63228807e-07
2.84538587e+01 1.58175983e-07
2.86253745e+01 1.53233965e-07
2.87979242e+01 1.48401916e-07
2.89715140e+01 1.43678955e-07
2.91461501e+01 1.39064152e-07
2.93218390e+01 1.34556537e-07
2.94985869e+01 1.30155097e-07
2.96764001e+01 1.25858781e-07
2.98552852e+01 1.21666497e-07
3.00352486e+01 1.17577117e-07
3.02162968e+01 1.13589479e-07
3.03984364e+01 1.09702385e-07
3.05816738e+01 1.05914608e-07
3.07660158e+01 1.02224888e-07
3.09514689e+01 9.86319390e-08
3.11380400e+01 9.51344456e-08
3.13257356e+01 9.17310684e-08
3.15145627e+01 8.84204440e-08
3.17045280e+01 8.52011873e-08
3.18956384e+01 8.20718924e-08
3.20879007e+01 7.90311350e-08
3.22813220e+01 7.60774736e-08
3.24759092e+01 7.32094512e-08
3.26716694e+01 7.04255970e-08
3.28686096e+01 6.77244277e-08
3.30667368e+01 6.51044495e-08
3.32660584e+01 6.25641594e-08
3.34665815e+01 6.01020466e-08
3.36683133e+01 5.77165942e-08
3.38712611e+01 5.54062806e-08
3.40754322e+01 5.31695810e-08
3.42808340e+01 5.10049687e-08
3.44874740e+01 4.89109167e-08
3.46953596e+01 4.68858987e-08
3.49044983e+01 4.49283908e-08
3.51148976e+01 4.30368726e-08
3.53265652e+01 4.12098285e-08
3.55395087e+01 3.94457490e-08
3.57537358e+01 3.77431315e-08
3.59692542e+01 3.61004820e-08
3.61860718e+01 3.45163160e-08
3.64041962e+01 3.29891592e-08
3.66236356e+01 3.15175490e-08
3.68443976e+01 3.01000355e-08
3.70664904e+01 2.87351820e-08
3.72899219e+01 2.74215663e-08
3.75147002e+01 2.61577813e-08
3.77408335e+01 2.49424362e-08
3.79683299e+01 2.37741568e-08
3.81971975e+01 2.26515865e-08
3.84274448e+01 2.15733870e-08
3.86590800e+01 2.05382390e-08
3.88921114e+01 1.95448425e-08
3.91265475e+01 1.85919176e-08
3.93623967e+01 1.76782052e-08
3.95996677e+01 1.68024671e-08
3.98383688e+01 1.59634867e-08
4.00785088e+01 1.51600693e-08
4.03200964e+01 1.43910425e-08
4.05631401e+01 1.36552564e-08
4.08076490e+01 1.29515842e-08
4.10536317e+01 1.22789220e-08
4.13010971e+01 1.16361895e-08
4.15500542e+01 1.10223298e-08
4.18005120e+01 1.04363095e-08
4.20524796e+01 9.87711913e-09
4.23059659e+01 9.34377308e-09
4.25609802e+01 8.83530948e-09
4.28175318e+01 8.35079039e-09
4.30756297e+01 7.88930166e-09
4.33352835e+01 7.44995298e-09
4.35965024e+01 7.03187768e-09
4.38592959e+01 6.63423271e-09
4.41236735e+01 6.25619846e-09
4.43896447e+01 5.89697858e-09
4.46572192e+01 5.55579983e-09
4.49264065e+01 5.23191187e-09
4.51972165e+01 4.92458699e-09
4.54696589e+01 4.63311989e-09
4.57437435e+01 4.35682739e-09
4.60194802e+01 4.09504816e-09
4.62968791e+01 3.84714240e-09
4.65759501e+01 3.61249151e-09
4.68567033e+01 3.39049778e-09
4.71391488e+01 3.18058401e-09
4.74232969e+01 2.98219317e-09
4.77091578e+01 2.79478800e-09
4.79967418e+01 2.61785066e-09
4.82860593e+01 2.45088229e-09
4.85771208e+01 2.29340266e-09
4.88699367e+01 2.14494973e-09
4.91645177e+01 2.00507924e-09
4.94608744e+01 1.87336428e-09
4.97590175e+01 1.74939491e-09
5.00589578e+01 1.63277765e-09
5.03607061e+01 1.52313516e-09
5.06642732e+01 1.42010569e-09
5.09696702e+01 1.32334275e-09
5.12769081e+01 1.23251461e-09
5.15859980e+01 1.14730390e-09
5.18969511e+01 1.06740718e-09
5.22097785e+01 9.92534495e-10
5.25244916e+01 9.22408962e-10
5.28411017e+01 8.56766352e-10
5.31596204e+01 7.95354665e-10
5.34800590e+01 7.37933722e-10
5.38024292e+01 6.84274752e-10
5.41267425e+01 6.34159997e-10
5.44530108e+01 5.87382309e-10
5.47812458e+01 5.43744765e-10
5.51114593e+01 5.03060281e-10
5.54436634e+01 4.65151237e-10
5.57778699e+01 4.29849109e-10
5.61140909e+01 3.96994107e-10
5.64523387e+01 3.66434822e-10
5.67926253e+01 3.38027881e-10
5.71349632e+01 3.11637614e-10
5.74793646e+01 2.87135718e-10
5.78258420e+01 2.64400946e-10
5.81744079e+01 2.43318790e-10
5.85250749e+01 2.23781182e-10
5.88778558e+01 2.05686201e-10
5.92327631e+01 1.88937786e-10
5.95898097e+01 1.73445462e-10
5.99490086e+01 1.59124076e-10
6.03103727e+01 1.45893533e-10
6.06739150e+01 1.33678556e-10
6.10396487e+01 1.22408435e-10
6.14075870e+01 1.12016804e-10
6.17777432e+01 1.02441416e-10
6.21501306e+01 9.36239240e-11
6.25247628e+01 8.55096814e-11
6.29016531e+01 7.80475389e-11
6.32808153e+01 7.11896567e-11
6.36622631e+01 6.48913216e-11
6.40460101e+01 5.91107730e-11
6.44320703e+01 5.38090360e-11
6.48204576e+01 4.89497617e-11
6.52111861e+01 4.44990746e-11
6.56042699e+01 4.04254282e-11
6.59997230e+01 3.66994656e-11
6.63975600e+01 3.32938880e-11
6.67977950e+01 3.01833292e-11
6.72004426e+01 2.73442363e-11
6.76055173e+01 2.47547562e-11
6.80130337e+01 2.23946286e-11
6.84230066e+01 2.02450837e-11
6.88354507e+01 1.82887458e-11
6.92503810e+01 1.65095421e-11
6.96678124e+01 1.48926164e-11
7.00877600e+01 1.34242475e-11
7.05102391e+01 1.20917722e-11
7.09352647e+01 1.08835129e-11
7.13628524e+01 9.78870958e-12
7.17930175e+01 8.79745485e-12
7.22257756e+01 7.90063410e-12
7.26611423e+01 7.08986853e-12
7.30991333e+01 6.35746187e-12
7.35397644e+01 5.69635048e-12
7.39830516e+01 5.10005655e-12
7.44290109e+01 4.56264431e-12
7.48776584e+01 4.07867914e-12
7.53290102e+01 3.64318925e-12
7.57830828e+01 3.25163006e-12
7.62398924e+01 2.89985092e-12
7.66994556e+01 2.58406406e-12
7.71617890e+01 2.30081582e-12
7.76269092e+01 2.04695974e-12
7.80948332e+01 1.81963172e-12
7.85655777e+01 1.61622686e-12
7.90391598e+01 1.43437802e-12
7.95155966e+01 1.27193597e-12
7.99949053e+01 1.12695100e-12
8.04771032e+01 9.97655940e-13
8.09622077e+01 8.82450463e-13
8.14502363e+01 7.79886589e-13
8.19412067e+01 6.88655346e-13
8.24351366e+01 6.07574465e-13
8.29320439e+01 5.35577070e-13
8.34319464e+01 4.71701273e-13
8.39348623e+01 4.15080619e-13
8.44408097e+01 3.64935331e-13
8.49498069e+01 3.20564268e-13
8.54618722e+01 2.81337576e-13
8.59770242e+01 2.46689956e-13
8.64952814e+01 2.16114521e-13
8.70166626e+01 1.89157178e-13
8.75411867e+01 1.65411510e-13
8.80688725e+01 1.44514113e-13
8.85997391e+01 1.26140351e-13
8.91338057e+01 1.10000491e-13
8.96710915e+01 9.58362042e-14
9.02116161e+01 8.34173766e-14
9.07553989e+01 7.25392290e-14
9.13024595e+01 6.30197031e-14
9.18528177e+01 5.46970987e-14
9.24064934e+01 4.74279380e-14
9.29635065e+01 4.10850381e-14
9.35238773e+01 3.55557714e-14
9.40876259e+01 3.07405000e-14
9.46547727e+01 2.65511659e-14
9.52253382e+01 2.29100233e-14
9.57993429e+01 1.97485009e-14
9.63768077e+01 1.70061809e-14
9.69577534e+01 1.46298840e-14
9.75422009e+01 1.25728507e-14
9.81301714e+01 1.07940085e-14
9.87216861e+01 9.25731852e-15
9.93167663e+01 7.93119113e-15
9.99154336e+01 6.78796626e-15
1.00517710e+02 5.80345017e-15
1.01123616e+02 4.95650366e-15
1.01733175e+02 4.22867618e-15
1.02346408e+02 3.60388134e-15
1.02963337e+02 3.06810911e-15
1.03583986e+02 2.60917119e-15
1.04208375e+02 2.21647573e-15
1.04836528e+02 1.88082841e-15
1.05468468e+02 1.59425690e-15
1.06104217e+02 1.34985615e-15
1.06743798e+02 1.14165226e-15
1.07387234e+02 9.64482700e-16
1.08034549e+02 8.13891231e-16
1.08685766e+02 6.86035636e-16
1.09340909e+02 5.77606935e-16
1.10000000e+02 4.85758665e-16
