# spectrum_type=llam_um  col1 lambda [um]  col2 L_lam(3e4)  col3 L_lam(5e4) [erg/s/um]
1.12712909e-02 6.96532982e+26 8.27773460e+32
1.15537794e-02 1.74182083e+27 1.36536180e+33
1.18362679e-02 4.15716695e+27 2.19251570e+33
1.21187564e-02 9.50102629e+27 3.43431404e+33
1.24012449e-02 2.08562554e+28 5.25660131e+33
1.26837334e-02 4.40951016e+28 7.87469613e+33
1.29662219e-02 9.00166185e+28 1.15627337e+34
1.32487104e-02 1.77840027e+29 1.66634262e+34
1.35311989e-02 3.40739768e+29 2.35979863e+34
1.38136874e-02 6.34364939e+29 3.28759312e+34
1.40961758e-02 1.14960134e+30 4.51044657e+34
1.43786643e-02 2.03120917e+30 6.09971443e+34
1.46611528e-02 3.50440018e+30 8.13815167e+34
1.49436413e-02 5.91189618e+30 1.07205487e+35
1.52261298e-02 9.76452420e+30 1.39542147e+35
1.55086183e-02 1.58089327e+31 1.79592883e+35
1.57911068e-02 2.51165376e+31 2.28688607e+35
1.60735953e-02 3.91982984e+31 2.88289006e+35
1.63560838e-02 6.01503585e+31 3.59979768e+35
1.66385723e-02 9.08359267e+31 4.45467775e+35
1.69210608e-02 1.35109006e+32 5.46574329e+35
1.72035493e-02 1.98085661e+32 6.65226497e+35
1.74860378e-02 2.86468438e+32 8.03446713e+35
1.77685263e-02 4.08929296e+32 9.63340818e+35
1.80510148e-02 5.76555967e+32 1.14708472e+36
1.83335033e-02 8.03366005e+32 1.35690993e+36
1.86159918e-02 1.10689200e+33 1.59508812e+36
1.88984802e-02 1.50884036e+33 1.86391509e+36
1.91809687e-02 2.03582508e+33 2.16569422e+36
1.94634572e-02 2.72017626e+33 2.50271978e+36
1.97459457e-02 3.60082233e+33 2.87726025e+36
2.00284342e-02 4.72424281e+33 3.29154187e+36
2.03109227e-02 6.14548751e+33 3.74773269e+36
2.05934112e-02 7.92925622e+33 4.24792718e+36
2.08758997e-02 1.01510317e+34 4.79413169e+36
2.11583882e-02 1.28982574e+34 5.38825082e+36
2.14408767e-02 1.62715495e+34 6.03207478e+36
2.17233652e-02 2.03859336e+34 6.72726798e+36
2.20058537e-02 2.53720922e+34 7.47535876e+36
2.22883422e-02 3.13776119e+34 8.27773039e+36
2.25708307e-02 3.85682163e+34 9.13561341e+36
2.28533192e-02 4.71289707e+34 1.00500792e+37
2.31358077e-02 5.72654457e+34 1.10220349e+37
2.34182961e-02 6.92048248e+34 1.20522198e+37
2.37007846e-02 8.31969437e+34 1.31412022e+37
2.39832731e-02 9.95152478e+34 1.42893787e+37
2.42657616e-02 1.18457655e+35 1.54969739e+37
2.45482501e-02 1.40347314e+35 1.67640409e+37
2.48307386e-02 1.65533247e+35 1.80904634e+37
2.51132271e-02 1.94390862e+35 1.94759589e+37
2.53957156e-02 2.27322343e+35 2.09200817e+37
2.56782041e-02 2.64756886e+35 2.24222283e+37
2.59606926e-02 3.07150800e+35 2.39816417e+37
2.62431811e-02 3.54987453e+35 2.55974180e+37
2.65256696e-02 4.08777067e+35 2.72685124e+37
2.68081581e-02 4.69056360e+35 2.89937461e+37
2.70906466e-02 5.36388035e+35 3.07718136e+37
2.73731351e-02 6.11360114e+35 3.26012904e+37
2.76556236e-02 6.94585128e+35 3.44806406e+37
2.79381121e-02 7.86699159e+35 3.64082251e+37
2.82206005e-02 8.88360745e+35 3.83823095e+37
2.85030890e-02 1.00024965e+36 4.04010727e+37
2.87855775e-02 1.12306549e+36 4.24626145e+37
2.90680660e-02 1.25752632e+36 4.45649645e+37
2.93505545e-02 1.40436696e+36 4.67060896e+37
2.96330430e-02 1.56433738e+36 4.88839021e+37
2.99155315e-02 1.73820093e+36 5.10962679e+37
3.01980200e-02 1.92673245e+36 5.33410134e+37
3.04805085e-02 2.13071637e+36 5.56159337e+37
3.07629970e-02 2.35094474e+36 5.79187991e+37
3.10454855e-02 2.58821521e+36 6.02473622e+37
3.13279740e-02 2.84332896e+36 6.25993649e+37
3.16104625e-02 3.11708862e+36 6.49725440e+37
3.18929510e-02 3.41029617e+36 6.73646380e+37
3.21754395e-02 3.72375085e+36 6.97733920e+37
3.24579280e-02 4.05824707e+36 7.21965639e+37
3.27404165e-02 4.41457231e+36 7.46319288e+37
3.30229049e-02 4.79350508e+36 7.70772840e+37
3.33053934e-02 5.19581291e+36 7.95304538e+37
3.35878819e-02 5.62225036e+36 8.19892927e+37
3.38703704e-02 6.07355712e+36 8.44516903e+37
3.41528589e-02 6.55045610e+36 8.69155738e+37
3.44353474e-02 7.05365169e+36 8.93789119e+37
3.47178359e-02 7.58382798e+36 9.18397171e+37
3.50003244e-02 8.14164710e+36 9.42960490e+37
3.52828129e-02 8.72774770e+36 9.67460158e+37
3.55653014e-02 9.34274338e+36 9.91877771e+37
3.58477899e-02 9.98722137e+36 1.01619545e+38
3.61302784e-02 1.06617412e+37 1.04039587e+38
3.64127669e-02 1.13668333e+37 1.06446225e+38
3.66952554e-02 1.21029983e+37 1.08837839e+38
3.69777439e-02 1.28707056e+37 1.11212866e+38
3.72602324e-02 1.36703926e+37 1.13569802e+38
3.75427208e-02 1.45024638e+37 1.15907201e+38
3.78252093e-02 1.53672904e+37 1.18223677e+38
3.81076978e-02 1.62652090e+37 1.20517904e+38
3.83901863e-02 1.71965218e+37 1.22788614e+38
3.86726748e-02 1.81614958e+37 1.25034599e+38
3.89551633e-02 1.91603623e+37 1.27254711e+38
3.92376518e-02 2.01933170e+37 1.29447858e+38
3.95201403e-02 2.12605196e+37 1.31613009e+38
3.98026288e-02 2.23620938e+37 1.33749189e+38
4.00851173e-02 2.34981274e+37 1.35855478e+38
4.03676058e-02 2.46686722e+37 1.37931016e+38
4.06500943e-02 2.58737442e+37 1.39974993e+38
4.09325828e-02 2.71133240e+37 1.41986658e+38
4.12150713e-02 2.83873572e+37 1.43965309e+38
4.14975598e-02 2.96957543e+37 1.45910298e+38
4.17800483e-02 3.10383916e+37 1.47821027e+38
4.20625368e-02 3.24151117e+37 1.49696948e+38
4.23450252e-02 3.38257237e+37 1.51537560e+38
4.26275137e-02 3.52700044e+37 1.53342412e+38
4.29100022e-02 3.67476983e+37 1.55111095e+38
4.31924907e-02 3.82585189e+37 1.56843246e+38
4.34749792e-02 3.98021492e+37 1.58538548e+38
4.37574677e-02 4.13782425e+37 1.60196722e+38
4.40399562e-02 4.29864233e+37 1.61817530e+38
4.43224447e-02 4.46262882e+37 1.63400775e+38
4.46049332e-02 4.62974068e+37 1.64946297e+38
4.48874217e-02 4.79993224e+37 1.66453972e+38
4.51699102e-02 4.97315533e+37 1.67923711e+38
4.54523987e-02 5.14935937e+37 1.69355460e+38
4.57348872e-02 5.32849143e+37 1.70749196e+38
4.60173757e-02 5.51049640e+37 1.72104928e+38
4.62998642e-02 5.69531702e+37 1.73422695e+38
4.65823527e-02 5.88289404e+37 1.74702564e+38
4.68648411e-02 6.07316627e+37 1.75944631e+38
4.71473296e-02 6.26607073e+37 1.77149015e+38
4.74298181e-02 6.46154273e+37 1.78315863e+38
4.77123066e-02 6.65951596e+37 1.79445344e+38
4.79947951e-02 6.85992264e+37 1.80537650e+38
4.82772836e-02 7.06269356e+37 1.81592996e+38
4.85597721e-02 7.26775822e+37 1.82611614e+38
4.88422606e-02 7.47504492e+37 1.83593759e+38
4.91247491e-02 7.68448087e+37 1.84539700e+38
4.94072376e-02 7.89599228e+37 1.85449728e+38
4.96897261e-02 8.10950443e+37 1.86324146e+38
4.99722146e-02 8.32494182e+37 1.87163274e+38
5.02547031e-02 8.54222822e+37 1.87967447e+38
5.05371916e-02 8.76128677e+37 1.88737012e+38
5.08196801e-02 8.98204008e+37 1.89472328e+38
5.11021686e-02 9.20441031e+37 1.90173767e+38
5.13846571e-02 9.42831926e+37 1.90841712e+38
5.16671455e-02 9.65368845e+37 1.91476554e+38
5.19496340e-02 9.88043920e+37 1.92078694e+38
5.22321225e-02 1.01084927e+38 1.92648542e+38
5.25146110e-02 1.03377701e+38 1.93186516e+38
5.27970995e-02 1.05681927e+38 1.93693040e+38
5.30795880e-02 1.07996817e+38 1.94168544e+38
5.33620765e-02 1.10321586e+38 1.94613465e+38
5.36445650e-02 1.12655451e+38 1.95028243e+38
5.39270535e-02 1.14997632e+38 1.95413325e+38
5.42095420e-02 1.17347353e+38 1.95769160e+38
5.44920305e-02 1.19703844e+38 1.96096202e+38
5.47745190e-02 1.22066336e+38 1.96394905e+38
5.50570075e-02 1.24434068e+38 1.96665729e+38
5.53394960e-02 1.26806285e+38 1.96909132e+38
5.56219845e-02 1.29182237e+38 1.97125576e+38
5.59044730e-02 1.31561184e+38 1.97315523e+38
5.61869614e-02 1.33942389e+38 1.97479437e+38
5.64694499e-02 1.36325126e+38 1.97617779e+38
5.67519384e-02 1.38708677e+38 1.97731012e+38
5.70344269e-02 1.41092332e+38 1.97819598e+38
5.73169154e-02 1.43475390e+38 1.97883999e+38
5.75994039e-02 1.45857158e+38 1.97924673e+38
5.78818924e-02 1.48236956e+38 1.97942078e+38
5.81643809e-02 1.50614112e+38 1.97936672e+38
5.84468694e-02 1.52987963e+38 1.97908907e+38
5.87293579e-02 1.55357859e+38 1.97859236e+38
5.90118464e-02 1.57723159e+38 1.97788108e+38
5.92943349e-02 1.60083235e+38 1.97695968e+38
5.95768234e-02 1.62437467e+38 1.97583259e+38
5.98593119e-02 1.64785250e+38 1.97450422e+38
6.01418004e-02 1.67125987e+38 1.97297892e+38
6.04242889e-02 1.69459097e+38 1.97126102e+38
6.07067774e-02 1.71784006e+38 1.96935480e+38
6.09892658e-02 1.74100156e+38 1.96726452e+38
6.12717543e-02 1.76406999e+38 1.96499437e+38
6.15542428e-02 1.78704000e+38 1.96254853e+38
6.18367313e-02 1.80990635e+38 1.95993111e+38
6.21192198e-02 1.83266393e+38 1.95714618e+38
6.24017083e-02 1.85530777e+38 1.95419779e+38
6.26841968e-02 1.87783301e+38 1.95108990e+38
6.29666853e-02 1.90023490e+38 1.94782645e+38
6.32491738e-02 1.92250883e+38 1.94441134e+38
6.35316623e-02 1.94465032e+38 1.94084839e+38
6.38141508e-02 1.96665500e+38 1.93714140e+38
6.40966393e-02 1.98851863e+38 1.93329410e+38
6.43791278e-02 2.01023710e+38 1.92931019e+38
6.46616163e-02 2.03180642e+38 1.92519329e+38
6.49441048e-02 2.05322270e+38 1.92094700e+38
6.52265933e-02 2.07448221e+38 1.91657484e+38
6.55090817e-02 2.09558131e+38 1.91208030e+38
6.57915702e-02 2.11651650e+38 1.90746680e+38
6.60740587e-02 2.13728439e+38 1.90273774e+38
6.63565472e-02 2.15788171e+38 1.89789642e+38
6.66390357e-02 2.17830532e+38 1.89294613e+38
6.69215242e-02 2.19855217e+38 1.88789008e+38
6.72040127e-02 2.21861935e+38 1.88273145e+38
6.74865012e-02 2.23850406e+38 1.87747336e+38
6.77689897e-02 2.25820360e+38 1.87211886e+38
6.80514782e-02 2.27771539e+38 1.86667097e+38
6.83339667e-02 2.29703697e+38 1.86113266e+38
6.86164552e-02 2.31616597e+38 1.85550684e+38
6.88989437e-02 2.33510016e+38 1.84979636e+38
6.91814322e-02 2.35383737e+38 1.84400404e+38
6.94639207e-02 2.37237557e+38 1.83813264e+38
6.97464092e-02 2.39071282e+38 1.83218486e+38
7.00288977e-02 2.40884730e+38 1.82616337e+38
7.03113861e-02 2.42677726e+38 1.82007078e+38
7.05938746e-02 2.44450107e+38 1.81390964e+38
7.08763631e-02 2.46201719e+38 1.80768249e+38
7.11588516e-02 2.47932417e+38 1.80139177e+38
7.14413401e-02 2.49642068e+38 1.79503991e+38
7.17238286e-02 2.51330545e+38 1.78862928e+38
7.20063171e-02 2.52997732e+38 1.78216220e+38
7.22888056e-02 2.54643521e+38 1.77564096e+38
7.25712941e-02 2.56267813e+38 1.76906779e+38
7.28537826e-02 2.57870517e+38 1.76244488e+38
7.31362711e-02 2.59451552e+38 1.75577436e+38
7.34187596e-02 2.61010845e+38 1.74905835e+38
7.37012481e-02 2.62548328e+38 1.74229889e+38
7.39837366e-02 2.64063945e+38 1.73549801e+38
7.42662251e-02 2.65557645e+38 1.72865767e+38
7.45487136e-02 2.67029386e+38 1.72177980e+38
7.48312021e-02 2.68479132e+38 1.71486630e+38
7.51136905e-02 2.69906857e+38 1.70791900e+38
7.53961790e-02 2.71312537e+38 1.70093973e+38
7.56786675e-02 2.72696161e+38 1.69393024e+38
7.59611560e-02 2.74057720e+38 1.68689227e+38
7.62436445e-02 2.75397214e+38 1.67982751e+38
7.65261330e-02 2.76714648e+38 1.67273761e+38
7.68086215e-02 2.78010034e+38 1.66562419e+38
7.70911100e-02 2.79283391e+38 1.65848882e+38
7.73735985e-02 2.80534741e+38 1.65133306e+38
7.76560870e-02 2.81764116e+38 1.64415841e+38
7.79385755e-02 2.82971549e+38 1.63696635e+38
7.82210640e-02 2.84157082e+38 1.62975830e+38
7.85035525e-02 2.85320761e+38 1.62253568e+38
7.87860410e-02 2.86462637e+38 1.61529986e+38
7.90685295e-02 2.87582766e+38 1.60805218e+38
7.93510180e-02 2.88681209e+38 1.60079395e+38
7.96335064e-02 2.89758032e+38 1.59352643e+38
7.99159949e-02 2.90813304e+38 1.58625087e+38
8.01984834e-02 2.91847102e+38 1.57896850e+38
8.04809719e-02 2.92859503e+38 1.57168048e+38
8.07634604e-02 2.93850591e+38 1.56438798e+38
8.10459489e-02 2.94820453e+38 1.55709212e+38
8.13284374e-02 2.95769180e+38 1.54979400e+38
8.16109259e-02 2.96696867e+38 1.54249468e+38
8.18934144e-02 2.97603612e+38 1.53519520e+38
8.21759029e-02 2.98489517e+38 1.52789659e+38
8.24583914e-02 2.99354688e+38 1.52059982e+38
8.27408799e-02 3.00199232e+38 1.51330587e+38
8.30233684e-02 3.01023262e+38 1.50601566e+38
8.33058569e-02 3.01826892e+38 1.49873011e+38
8.35883454e-02 3.02610239e+38 1.49145010e+38
8.38708339e-02 3.03373424e+38 1.48417651e+38
8.41533224e-02 3.04116571e+38 1.47691016e+38
8.44358108e-02 3.04839803e+38 1.46965187e+38
8.47182993e-02 3.05543250e+38 1.46240244e+38
8.50007878e-02 3.06227042e+38 1.45516264e+38
8.52832763e-02 3.06891310e+38 1.44793322e+38
8.55657648e-02 3.07536191e+38 1.44071491e+38
8.58482533e-02 3.08161820e+38 1.43350840e+38
8.61307418e-02 3.08768336e+38 1.42631440e+38
8.64132303e-02 3.09355880e+38 1.41913357e+38
8.66957188e-02 3.09924593e+38 1.41196656e+38
8.69782073e-02 3.10474621e+38 1.40481398e+38
8.72606958e-02 3.11006108e+38 1.39767646e+38
8.75431843e-02 3.11519200e+38 1.39055458e+38
8.78256728e-02 3.12014048e+38 1.38344891e+38
8.81081613e-02 3.12490799e+38 1.37636001e+38
8.83906498e-02 3.12949605e+38 1.36928843e+38
8.86731383e-02 3.13390619e+38 1.36223466e+38
8.89556267e-02 3.13813992e+38 1.35519923e+38
8.92381152e-02 3.14219880e+38 1.34818262e+38
8.95206037e-02 3.14608437e+38 1.34118529e+38
8.98030922e-02 3.14979819e+38 1.33420772e+38
9.00855807e-02 3.15334182e+38 1.32725032e+38
9.03680692e-02 3.15671685e+38 1.32031355e+38
9.06505577e-02 3.15992485e+38 1.31339779e+38
9.09330462e-02 3.16296741e+38 1.30650346e+38
9.12155347e-02 3.16584612e+38 1.29963093e+38
9.14980232e-02 3.16856257e+38 1.29278057e+38
9.17805117e-02 3.17111836e+38 1.28595274e+38
9.20630002e-02 3.17351510e+38 1.27914778e+38
9.23454887e-02 3.17575439e+38 1.27236603e+38
9.26279772e-02 3.17783785e+38 1.26560780e+38
9.29104657e-02 3.17976707e+38 1.25887339e+38
9.31929542e-02 3.18154368e+38 1.25216310e+38
9.34754427e-02 3.18316927e+38 1.24547722e+38
9.37579311e-02 3.18464548e+38 1.23881600e+38
9.40404196e-02 3.18597389e+38 1.23217972e+38
9.43229081e-02 3.18715614e+38 1.22556862e+38
9.46053966e-02 3.18819382e+38 1.21898294e+38
9.48878851e-02 3.18908855e+38 1.21242291e+38
9.51703736e-02 3.18984193e+38 1.20588874e+38
9.54528621e-02 3.19045556e+38 1.19938065e+38
9.57353506e-02 3.19093105e+38 1.19289882e+38
9.60178391e-02 3.19126999e+38 1.18644346e+38
9.63003276e-02 3.19147398e+38 1.18001474e+38
9.65828161e-02 3.19154460e+38 1.17361282e+38
9.68653046e-02 3.19148344e+38 1.16723788e+38
9.71477931e-02 3.19129209e+38 1.16089007e+38
9.74302816e-02 3.19097212e+38 1.15456953e+38
9.77127701e-02 3.19052509e+38 1.14827640e+38
9.79952586e-02 3.18995258e+38 1.14201080e+38
9.82777470e-02 3.18925615e+38 1.13577287e+38
9.85602355e-02 3.18843734e+38 1.12956271e+38
9.88427240e-02 3.18749770e+38 1.12338043e+38
9.91252125e-02 3.18643878e+38 1.11722613e+38
9.94077010e-02 3.18526211e+38 1.11109990e+38
9.96901895e-02 3.18396921e+38 1.10500183e+38
9.99726780e-02 3.18256160e+38 1.09893199e+38
1.00255167e-01 3.18104079e+38 1.09289047e+38
1.00537655e-01 3.17940829e+38 1.08687732e+38
1.00820143e-01 3.17766559e+38 1.08089261e+38
1.01102632e-01 3.17581418e+38 1.07493639e+38
1.01385120e-01 3.17385553e+38 1.06900871e+38
1.01667609e-01 3.17179112e+38 1.06310961e+38
1.01950097e-01 3.16962242e+38 1.05723913e+38
1.02232586e-01 3.16735086e+38 1.05139730e+38
1.02515074e-01 3.16497789e+38 1.04558415e+38
1.02797563e-01 3.16250496e+38 1.03979970e+38
1.03080051e-01 3.15993347e+38 1.03404397e+38
1.03362540e-01 3.15726486e+38 1.02831696e+38
1.03645028e-01 3.15450052e+38 1.02261869e+38
1.03927517e-01 3.15164185e+38 1.01694916e+38
1.04210005e-01 3.14869024e+38 1.01130837e+38
1.04492494e-01 3.14564706e+38 1.00569631e+38
1.04774982e-01 3.14251368e+38 1.00011296e+38
1.05057471e-01 3.13929146e+38 9.94558327e+37
1.05339959e-01 3.13598174e+38 9.89032378e+37
1.05622448e-01 3.13258586e+38 9.83535096e+37
1.05904936e-01 3.12910514e+38 9.78066455e+37
1.06187425e-01 3.12554090e+38 9.72626424e+37
1.06469913e-01 3.12189444e+38 9.67214972e+37
1.06752402e-01 3.11816707e+38 9.61832062e+37
1.07034890e-01 3.11436005e+38 9.56477654e+37
1.07317379e-01 3.11047467e+38 9.51151707e+37
1.07599867e-01 3.10651218e+38 9.45854173e+37
1.07882356e-01 3.10247384e+38 9.40585004e+37
1.08164844e-01 3.09836089e+38 9.35344149e+37
1.08447333e-01 3.09417455e+38 9.30131552e+37
1.08729821e-01 3.08991605e+38 9.24947156e+37
1.09012310e-01 3.08558660e+38 9.19790902e+37
1.09294798e-01 3.08118739e+38 9.14662727e+37
1.09577287e-01 3.07671961e+38 9.09562565e+37
1.09859775e-01 3.07218444e+38 9.04490349e+37
1.10142264e-01 3.06758304e+38 8.99446010e+37
1.10424752e-01 3.06291655e+38 8.94429475e+37
1.10707241e-01 3.05818614e+38 8.89440670e+37
1.10989729e-01 3.05339292e+38 8.84479519e+37
1.11272218e-01 3.04853803e+38 8.79545944e+37
1.11554706e-01 3.04362256e+38 8.74639863e+37
1.11837195e-01 3.03864762e+38 8.69761194e+37
1.12119683e-01 3.03361431e+38 8.64909855e+37
1.12402172e-01 3.02852368e+38 8.60085758e+37
1.12684660e-01 3.02337682e+38 8.55288817e+37
1.12967149e-01 3.01817478e+38 8.50518941e+37
1.13249637e-01 3.01291860e+38 8.45776041e+37
1.13532126e-01 3.00760933e+38 8.41060023e+37
1.13814614e-01 3.00224797e+38 8.36370795e+37
1.14097103e-01 2.99683555e+38 8.31708261e+37
1.14379591e-01 2.99137307e+38 8.27072325e+37
1.14662080e-01 2.98586152e+38 8.22462888e+37
1.14944568e-01 2.98030189e+38 8.17879851e+37
1.15227057e-01 2.97469513e+38 8.13323116e+37
1.15509545e-01 2.96904222e+38 8.08792579e+37
1.15792034e-01 2.96334411e+38 8.04288138e+37
1.16074522e-01 2.95760172e+38 7.99809691e+37
1.16357011e-01 2.95181600e+38 7.95357132e+37
1.16639499e-01 2.94598786e+38 7.90930356e+37
1.16921988e-01 2.94011821e+38 7.86529256e+37
1.17204476e-01 2.93420795e+38 7.82153725e+37
1.17486965e-01 2.92825796e+38 7.77803656e+37
1.17769453e-01 2.92226913e+38 7.73478938e+37
1.18051942e-01 2.91624232e+38 7.69179463e+37
1.18334430e-01 2.91017839e+38 7.64905120e+37
1.18616919e-01 2.90407819e+38 7.60655798e+37
1.18899407e-01 2.89794256e+38 7.56431386e+37
1.19181896e-01 2.89177233e+38 7.52231770e+37
1.19464384e-01 2.88556831e+38 7.48056839e+37
1.19746873e-01 2.87933131e+38 7.43906478e+37
1.20029361e-01 2.87306214e+38 7.39780574e+37
1.20311850e-01 2.86676158e+38 7.35679013e+37
1.20594338e-01 2.86043042e+38 7.31601680e+37
1.20876827e-01 2.85406942e+38 7.27548459e+37
1.21159315e-01 2.84767934e+38 7.23519235e+37
1.21441804e-01 2.84126095e+38 7.19513893e+37
1.21724292e-01 2.83481497e+38 7.15532315e+37
1.22006781e-01 2.82834215e+38 7.11574386e+37
1.22289269e-01 2.82184322e+38 7.07639988e+37
1.22571758e-01 2.81531888e+38 7.03729005e+37
1.22854246e-01 2.80876984e+38 6.99841319e+37
1.23136735e-01 2.80219680e+38 6.95976813e+37
1.23419223e-01 2.79560045e+38 6.92135370e+37
1.23701712e-01 2.78898147e+38 6.88316872e+37
1.23984200e-01 2.78234054e+38 6.84521200e+37
