# spectrum_type=per_ang  col1 lambda [A]  col2 L_lam(3e4)  col3 L_lam(5e4) [erg/s/A]
1.12712909e+02 6.96532982e+22 8.27773460e+28
1.15537794e+02 1.74182083e+23 1.36536180e+29
1.18362679e+02 4.15716695e+23 2.19251570e+29
1.21187564e+02 9.50102629e+23 3.43431404e+29
1.24012449e+02 2.08562554e+24 5.25660131e+29
1.26837334e+02 4.40951016e+24 7.87469613e+29
1.29662219e+02 9.00166185e+24 1.15627337e+30
1.32487104e+02 1.77840027e+25 1.66634262e+30
1.35311989e+02 3.40739768e+25 2.35979863e+30
1.38136874e+02 6.34364939e+25 3.28759312e+30
1.40961758e+02 1.14960134e+26 4.51044657e+30
1.43786643e+02 2.03120917e+26 6.09971443e+30
1.46611528e+02 3.50440018e+26 8.13815167e+30
1.49436413e+02 5.91189618e+26 1.07205487e+31
1.52261298e+02 9.76452420e+26 1.39542147e+31
1.55086183e+02 1.58089327e+27 1.79592883e+31
1.57911068e+02 2.51165376e+27 2.28688607e+31
1.60735953e+02 3.91982984e+27 2.88289006e+31
1.63560838e+02 6.01503585e+27 3.59979768e+31
1.66385723e+02 9.08359267e+27 4.45467775e+31
1.69210608e+02 1.35109006e+28 5.46574329e+31
1.72035493e+02 1.98085661e+28 6.65226497e+31
1.74860378e+02 2.86468438e+28 8.03446713e+31
1.77685263e+02 4.08929296e+28 9.63340818e+31
1.80510148e+02 5.76555967e+28 1.14708472e+32
1.83335033e+02 8.03366005e+28 1.35690993e+32
1.86159918e+02 1.10689200e+29 1.59508812e+32
1.88984802e+02 1.50884036e+29 1.86391509e+32
1.91809687e+02 2.03582508e+29 2.16569422e+32
1.94634572e+02 2.72017626e+29 2.50271978e+32
1.97459457e+02 3.60082233e+29 2.87726025e+32
2.00284342e+02 4.72424281e+29 3.29154187e+32
2.03109227e+02 6.14548751e+29 3.74773269e+32
2.05934112e+02 7.92925622e+29 4.24792718e+32
2.08758997e+02 1.01510317e+30 4.79413169e+32
2.11583882e+02 1.28982574e+30 5.38825082e+32
2.14408767e+02 1.62715495e+30 6.03207478e+32
2.17233652e+02 2.03859336e+30 6.72726798e+32
2.20058537e+02 2.53720922e+30 7.47535876e+32
2.22883422e+02 3.13776119e+30 8.27773039e+32
2.25708307e+02 3.85682163e+30 9.13561341e+32
2.28533192e+02 4.71289707e+30 1.00500792e+33
2.31358077e+02 5.72654457e+30 1.10220349e+33
2.34182961e+02 6.92048248e+30 1.20522198e+33
2.37007846e+02 8.31969437e+30 1.31412022e+33
2.39832731e+02 9.95152478e+30 1.42893787e+33
2.42657616e+02 1.18457655e+31 1.54969739e+33
2.45482501e+02 1.40347314e+31 1.67640409e+33
2.48307386e+02 1.65533247e+31 1.80904634e+33
2.51132271e+02 1.94390862e+31 1.94759589e+33
2.53957156e+02 2.27322343e+31 2.09200817e+33
2.56782041e+02 2.64756886e+31 2.24222283e+33
2.59606926e+02 3.07150800e+31 2.39816417e+33
2.62431811e+02 3.54987453e+31 2.55974180e+33
2.65256696e+02 4.08777067e+31 2.72685124e+33
2.68081581e+02 4.69056360e+31 2.89937461e+33
2.70906466e+02 5.36388035e+31 3.07718136e+33
2.73731351e+02 6.11360114e+31 3.26012904e+33
2.76556236e+02 6.94585128e+31 3.44806406e+33
2.79381121e+02 7.86699159e+31 3.64082251e+33
2.82206005e+02 8.88360745e+31 3.83823095e+33
2.85030890e+02 1.00024965e+32 4.04010727e+33
2.87855775e+02 1.12306549e+32 4.24626145e+33
2.90680660e+02 1.25752632e+32 4.45649645e+33
2.93505545e+02 1.40436696e+32 4.67060896e+33
2.96330430e+02 1.56433738e+32 4.88839021e+33
2.99155315e+02 1.73820093e+32 5.10962679e+33
3.01980200e+02 1.92673245e+32 5.33410134e+33
3.04805085e+02 2.13071637e+32 5.56159337e+33
3.07629970e+02 2.35094474e+32 5.79187991e+33
3.10454855e+02 2.58821521e+32 6.02473622e+33
3.13279740e+02 2.84332896e+32 6.25993649e+33
3.16104625e+02 3.11708862e+32 6.49725440e+33
3.18929510e+02 3.41029617e+32 6.73646380e+33
3.21754395e+02 3.72375085e+32 6.97733920e+33
3.24579280e+02 4.05824707e+32 7.21965639e+33
3.27404165e+02 4.41457231e+32 7.46319288e+33
3.30229049e+02 4.79350508e+32 7.70772840e+33
3.33053934e+02 5.19581291e+32 7.95304538e+33
3.35878819e+02 5.62225036e+32 8.19892927e+33
3.38703704e+02 6.07355712e+32 8.44516903e+33
3.41528589e+02 6.55045610e+32 8.69155738e+33
3.44353474e+02 7.05365169e+32 8.93789119e+33
3.47178359e+02 7.58382798e+32 9.18397171e+33
3.50003244e+02 8.14164710e+32 9.42960490e+33
3.52828129e+02 8.72774770e+32 9.67460158e+33
3.55653014e+02 9.34274338e+32 9.91877771e+33
3.58477899e+02 9.98722137e+32 1.01619545e+34
3.61302784e+02 1.06617412e+33 1.04039587e+34
3.64127669e+02 1.13668333e+33 1.06446225e+34
3.66952554e+02 1.21029983e+33 1.08837839e+34
3.69777439e+02 1.28707056e+33 1.11212866e+34
3.72602324e+02 1.36703926e+33 1.13569802e+34
3.75427208e+02 1.45024638e+33 1.15907201e+34
3.78252093e+02 1.53672904e+33 1.18223677e+34
3.81076978e+02 1.62652090e+33 1.20517904e+34
3.83901863e+02 1.71965218e+33 1.22788614e+34
3.86726748e+02 1.81614958e+33 1.25034599e+34
3.89551633e+02 1.91603623e+33 1.27254711e+34
3.92376518e+02 2.01933170e+33 1.29447858e+34
3.95201403e+02 2.12605196e+33 1.31613009e+34
3.98026288e+02 2.23620938e+33 1.33749189e+34
4.00851173e+02 2.34981274e+33 1.35855478e+34
4.03676058e+02 2.46686722e+33 1.37931016e+34
4.06500943e+02 2.58737442e+33 1.39974993e+34
4.09325828e+02 2.71133240e+33 1.41986658e+34
4.12150713e+02 2.83873572e+33 1.43965309e+34
4.14975598e+02 2.96957543e+33 1.45910298e+34
4.17800483e+02 3.10383916e+33 1.47821027e+34
4.20625368e+02 3.24151117e+33 1.49696948e+34
4.23450252e+02 3.38257237e+33 1.51537560e+34
4.26275137e+02 3.52700044e+33 1.53342412e+34
4.29100022e+02 3.67476983e+33 1.55111095e+34
4.31924907e+02 3.82585189e+33 1.56843246e+34
4.34749792e+02 3.98021492e+33 1.58538548e+34
4.37574677e+02 4.13782425e+33 1.60196722e+34
4.40399562e+02 4.29864233e+33 1.61817530e+34
4.43224447e+02 4.46262882e+33 1.63400775e+34
4.46049332e+02 4.62974068e+33 1.64946297e+34
4.48874217e+02 4.79993224e+33 1.66453972e+34
4.51699102e+02 4.97315533e+33 1.67923711e+34
4.54523987e+02 5.14935937e+33 1.69355460e+34
4.57348872e+02 5.32849143e+33 1.70749196e+34
4.60173757e+02 5.51049640e+33 1.72104928e+34
4.62998642e+02 5.69531702e+33 1.73422695e+34
4.65823527e+02 5.88289404e+33 1.74702564e+34
4.68648411e+02 6.07316627e+33 1.75944631e+34
4.71473296e+02 6.26607073e+33 1.77149015e+34
4.74298181e+02 6.46154273e+33 1.78315863e+34
4.77123066e+02 6.65951596e+33 1.79445344e+34
4.79947951e+02 6.85992264e+33 1.80537650e+34
4.82772836e+02 7.06269356e+33 1.81592996e+34
4.85597721e+02 7.26775822e+33 1.82611614e+34
4.88422606e+02 7.47504492e+33 1.83593759e+34
4.91247491e+02 7.68448087e+33 1.84539700e+34
4.94072376e+02 7.89599228e+33 1.85449728e+34
4.96897261e+02 8.10950443e+33 1.86324146e+34
4.99722146e+02 8.32494182e+33 1.87163274e+34
5.02547031e+02 8.54222822e+33 1.87967447e+34
5.05371916e+02 8.76128677e+33 1.88737012e+34
5.08196801e+02 8.98204008e+33 1.89472328e+34
5.11021686e+02 9.20441031e+33 1.90173767e+34
5.13846571e+02 9.42831926e+33 1.90841712e+34
5.16671455e+02 9.65368845e+33 1.91476554e+34
5.19496340e+02 9.88043920e+33 1.92078694e+34
5.22321225e+02 1.01084927e+34 1.92648542e+34
5.25146110e+02 1.03377701e+34 1.93186516e+34
5.27970995e+02 1.05681927e+34 1.93693040e+34
5.30795880e+02 1.07996817e+34 1.94168544e+34
5.33620765e+02 1.10321586e+34 1.94613465e+34
5.36445650e+02 1.12655451e+34 1.95028243e+34
5.39270535e+02 1.14997632e+34 1.95413325e+34
5.42095420e+02 1.17347353e+34 1.95769160e+34
5.44920305e+02 1.19703844e+34 1.96096202e+34
5.47745190e+02 1.22066336e+34 1.96394905e+34
5.50570075e+02 1.24434068e+34 1.96665729e+34
5.53394960e+02 1.26806285e+34 1.96909132e+34
5.56219845e+02 1.29182237e+34 1.97125576e+34
5.59044730e+02 1.31561184e+34 1.97315523e+34
5.61869614e+02 1.33942389e+34 1.97479437e+34
5.64694499e+02 1.36325126e+34 1.97617779e+34
5.67519384e+02 1.38708677e+34 1.97731012e+34
5.70344269e+02 1.41092332e+34 1.97819598e+34
5.73169154e+02 1.43475390e+34 1.97883999e+34
5.75994039e+02 1.45857158e+34 1.97924673e+34
5.78818924e+02 1.48236956e+34 1.97942078e+34
5.81643809e+02 1.50614112e+34 1.97936672e+34
5.84468694e+02 1.52987963e+34 1.97908907e+34
5.87293579e+02 1.55357859e+34 1.97859236e+34
5.90118464e+02 1.57723159e+34 1.97788108e+34
5.92943349e+02 1.60083235e+34 1.97695968e+34
5.95768234e+02 1.62437467e+34 1.97583259e+34
5.98593119e+02 1.64785250e+34 1.97450422e+34
6.01418004e+02 1.67125987e+34 1.97297892e+34
6.04242889e+02 1.69459097e+34 1.97126102e+34
6.07067774e+02 1.71784006e+34 1.96935480e+34
6.09892658e+02 1.74100156e+34 1.96726452e+34
6.12717543e+02 1.76406999e+34 1.96499437e+34
6.15542428e+02 1.78704000e+34 1.96254853e+34
6.18367313e+02 1.80990635e+34 1.95993111e+34
6.21192198e+02 1.83266393e+34 1.95714618e+34
6.24017083e+02 1.85530777e+34 1.95419779e+34
6.26841968e+02 1.87783301e+34 1.95108990e+34
6.29666853e+02 1.90023490e+34 1.94782645e+34
6.32491738e+02 1.92250883e+34 1.94441134e+34
6.35316623e+02 1.94465032e+34 1.94084839e+34
6.38141508e+02 1.96665500e+34 1.93714140e+34
6.40966393e+02 1.98851863e+34 1.93329410e+34
6.43791278e+02 2.01023710e+34 1.92931019e+34
6.46616163e+02 2.03180642e+34 1.92519329e+34
6.49441048e+02 2.05322270e+34 1.92094700e+34
6.52265933e+02 2.07448221e+34 1.91657484e+34
6.55090817e+02 2.09558131e+34 1.91208030e+34
6.57915702e+02 2.11651650e+34 1.90746680e+34
6.60740587e+02 2.13728439e+34 1.90273774e+34
6.63565472e+02 2.15788171e+34 1.89789642e+34
6.66390357e+02 2.17830532e+34 1.89294613e+34
6.69215242e+02 2.19855217e+34 1.88789008e+34
6.72040127e+02 2.21861935e+34 1.88273145e+34
6.74865012e+02 2.23850406e+34 1.87747336e+34
6.77689897e+02 2.25820360e+34 1.87211886e+34
6.80514782e+02 2.27771539e+34 1.86667097e+34
6.83339667e+02 2.29703697e+34 1.86113266e+34
6.86164552e+02 2.31616597e+34 1.85550684e+34
6.88989437e+02 2.33510016e+34 1.84979636e+34
6.91814322e+02 2.35383737e+34 1.84400404e+34
6.94639207e+02 2.37237557e+34 1.83813264e+34
6.97464092e+02 2.39071282e+34 1.83218486e+34
7.00288977e+02 2.40884730e+34 1.82616337e+34
7.03113861e+02 2.42677726e+34 1.82007078e+34
7.05938746e+02 2.44450107e+34 1.81390964e+34
7.08763631e+02 2.46201719e+34 1.80768249e+34
7.11588516e+02 2.47932417e+34 1.80139177e+34
7.14413401e+02 2.49642068e+34 1.79503991e+34
7.17238286e+02 2.51330545e+34 1.78862928e+34
7.20063171e+02 2.52997732e+34 1.78216220e+34
7.22888056e+02 2.54643521e+34 1.77564096e+34
7.25712941e+02 2.56267813e+34 1.76906779e+34
7.28537826e+02 2.57870517e+34 1.76244488e+34
7.31362711e+02 2.59451552e+34 1.75577436e+34
7.34187596e+02 2.61010845e+34 1.74905835e+34
7.37012481e+02 2.62548328e+34 1.74229889e+34
7.39837366e+02 2.64063945e+34 1.73549801e+34
7.42662251e+02 2.65557645e+34 1.72865767e+34
7.45487136e+02 2.67029386e+34 1.72177980e+34
7.48312021e+02 2.68479132e+34 1.71486630e+34
7.51136905e+02 2.69906857e+34 1.70791900e+34
7.53961790e+02 2.71312537e+34 1.70093973e+34
7.56786675e+02 2.72696161e+34 1.69393024e+34
7.59611560e+02 2.74057720e+34 1.68689227e+34
7.62436445e+02 2.75397214e+34 1.67982751e+34
7.65261330e+02 2.76714648e+34 1.67273761e+34
7.68086215e+02 2.78010034e+34 1.66562419e+34
7.70911100e+02 2.79283391e+34 1.65848882e+34
7.73735985e+02 2.80534741e+34 1.65133306e+34
7.76560870e+02 2.81764116e+34 1.64415841e+34
7.79385755e+02 2.82971549e+34 1.63696635e+34
7.82210640e+02 2.84157082e+34 1.62975830e+34
7.85035525e+02 2.85320761e+34 1.62253568e+34
7.87860410e+02 2.86462637e+34 1.61529986e+34
7.90685295e+02 2.87582766e+34 1.60805218e+34
7.93510180e+02 2.88681209e+34 1.60079395e+34
7.96335064e+02 2.89758032e+34 1.59352643e+34
7.99159949e+02 2.90813304e+34 1.58625087e+34
8.01984834e+02 2.91847102e+34 1.57896850e+34
8.04809719e+02 2.92859503e+34 1.57168048e+34
8.07634604e+02 2.93850591e+34 1.56438798e+34
8.10459489e+02 2.94820453e+34 1.55709212e+34
8.13284374e+02 2.95769180e+34 1.54979400e+34
8.16109259e+02 2.96696867e+34 1.54249468e+34
8.18934144e+02 2.97603612e+34 1.53519520e+34
8.21759029e+02 2.98489517e+34 1.52789659e+34
8.24583914e+02 2.99354688e+34 1.52059982e+34
8.27408799e+02 3.00199232e+34 1.51330587e+34
8.30233684e+02 3.01023262e+34 1.50601566e+34
8.33058569e+02 3.01826892e+34 1.49873011e+34
8.35883454e+02 3.02610239e+34 1.49145010e+34
8.38708339e+02 3.03373424e+34 1.48417651e+34
8.41533224e+02 3.04116571e+34 1.47691016e+34
8.44358108e+02 3.04839803e+34 1.46965187e+34
8.47182993e+02 3.05543250e+34 1.46240244e+34
8.50007878e+02 3.06227042e+34 1.45516264e+34
8.52832763e+02 3.06891310e+34 1.44793322e+34
8.55657648e+02 3.07536191e+34 1.44071491e+34
8.58482533e+02 3.08161820e+34 1.43350840e+34
8.61307418e+02 3.08768336e+34 1.42631440e+34
8.64132303e+02 3.09355880e+34 1.41913357e+34
8.66957188e+02 3.09924593e+34 1.41196656e+34
8.69782073e+02 3.10474621e+34 1.40481398e+34
8.72606958e+02 3.11006108e+34 1.39767646e+34
8.75431843e+02 3.11519200e+34 1.39055458e+34
8.78256728e+02 3.12014048e+34 1.38344891e+34
8.81081613e+02 3.12490799e+34 1.37636001e+34
8.83906498e+02 3.12949605e+34 1.36928843e+34
8.86731383e+02 3.13390619e+34 1.36223466e+34
8.89556267e+02 3.13813992e+34 1.35519923e+34
8.92381152e+02 3.14219880e+34 1.34818262e+34
8.95206037e+02 3.14608437e+34 1.34118529e+34
8.98030922e+02 3.14979819e+34 1.33420772e+34
9.00855807e+02 3.15334182e+34 1.32725032e+34
9.03680692e+02 3.15671685e+34 1.32031355e+34
9.06505577e+02 3.15992485e+34 1.31339779e+34
9.09330462e+02 3.16296741e+34 1.30650346e+34
9.12155347e+02 3.16584612e+34 1.29963093e+34
9.14980232e+02 3.16856257e+34 1.29278057e+34
9.17805117e+02 3.17111836e+34 1.28595274e+34
9.20630002e+02 3.17351510e+34 1.27914778e+34
9.23454887e+02 3.17575439e+34 1.27236603e+34
9.26279772e+02 3.17783785e+34 1.26560780e+34
9.29104657e+02 3.17976707e+34 1.25887339e+34
9.31929542e+02 3.18154368e+34 1.25216310e+34
9.34754427e+02 3.18316927e+34 1.24547722e+34
9.37579311e+02 3.18464548e+34 1.23881600e+34
9.40404196e+02 3.18597389e+34 1.23217972e+34
9.43229081e+02 3.18715614e+34 1.22556862e+34
9.46053966e+02 3.18819382e+34 1.21898294e+34
9.48878851e+02 3.18908855e+34 1.21242291e+34
9.51703736e+02 3.18984193e+34 1.20588874e+34
9.54528621e+02 3.19045556e+34 1.19938065e+34
9.57353506e+02 3.19093105e+34 1.19289882e+34
9.60178391e+02 3.19126999e+34 1.18644346e+34
9.63003276e+02 3.19147398e+34 1.18001474e+34
9.65828161e+02 3.19154460e+34 1.17361282e+34
9.68653046e+02 3.19148344e+34 1.16723788e+34
9.71477931e+02 3.19129209e+34 1.16089007e+34
9.74302816e+02 3.19097212e+34 1.15456953e+34
9.77127701e+02 3.19052509e+34 1.14827640e+34
9.79952586e+02 3.18995258e+34 1.14201080e+34
9.82777470e+02 3.18925615e+34 1.13577287e+34
9.85602355e+02 3.18843734e+34 1.12956271e+34
9.88427240e+02 3.18749770e+34 1.12338043e+34
9.91252125e+02 3.18643878e+34 1.11722613e+34
9.94077010e+02 3.18526211e+34 1.11109990e+34
9.96901895e+02 3.18396921e+34 1.10500183e+34
9.99726780e+02 3.18256160e+34 1.09893199e+34
1.00255167e+03 3.18104079e+34 1.09289047e+34
1.00537655e+03 3.17940829e+34 1.08687732e+34
1.00820143e+03 3.17766559e+34 1.08089261e+34
1.01102632e+03 3.17581418e+34 1.07493639e+34
1.01385120e+03 3.17385553e+34 1.06900871e+34
1.01667609e+03 3.17179112e+34 1.06310961e+34
1.01950097e+03 3.16962242e+34 1.05723913e+34
1.02232586e+03 3.16735086e+34 1.05139730e+34
1.02515074e+03 3.16497789e+34 1.04558415e+34
1.02797563e+03 3.16250496e+34 1.03979970e+34
1.03080051e+03 3.15993347e+34 1.03404397e+34
1.03362540e+03 3.15726486e+34 1.02831696e+34
1.03645028e+03 3.15450052e+34 1.02261869e+34
1.03927517e+03 3.15164185e+34 1.01694916e+34
1.04210005e+03 3.14869024e+34 1.01130837e+34
1.04492494e+03 3.14564706e+34 1.00569631e+34
1.04774982e+03 3.14251368e+34 1.00011296e+34
1.05057471e+03 3.13929146e+34 9.94558327e+33
1.05339959e+03 3.13598174e+34 9.89032378e+33
1.05622448e+03 3.13258586e+34 9.83535096e+33
1.05904936e+03 3.12910514e+34 9.78066455e+33
1.06187425e+03 3.12554090e+34 9.72626424e+33
1.06469913e+03 3.12189444e+34 9.67214972e+33
1.06752402e+03 3.11816707e+34 9.61832062e+33
1.07034890e+03 3.11436005e+34 9.56477654e+33
1.07317379e+03 3.11047467e+34 9.51151707e+33
1.07599867e+03 3.10651218e+34 9.45854173e+33
1.07882356e+03 3.10247384e+34 9.40585004e+33
1.08164844e+03 3.09836089e+34 9.35344149e+33
1.08447333e+03 3.09417455e+34 9.30131552e+33
1.08729821e+03 3.08991605e+34 9.24947156e+33
1.09012310e+03 3.08558660e+34 9.19790902e+33
1.09294798e+03 3.08118739e+34 9.14662727e+33
1.09577287e+03 3.07671961e+34 9.09562565e+33
1.09859775e+03 3.07218444e+34 9.04490349e+33
1.10142264e+03 3.06758304e+34 8.99446010e+33
1.10424752e+03 3.06291655e+34 8.94429475e+33
1.10707241e+03 3.05818614e+34 8.89440670e+33
1.10989729e+03 3.05339292e+34 8.84479519e+33
1.11272218e+03 3.04853803e+34 8.79545944e+33
1.11554706e+03 3.04362256e+34 8.74639863e+33
1.11837195e+03 3.03864762e+34 8.69761194e+33
1.12119683e+03 3.03361431e+34 8.64909855e+33
1.12402172e+03 3.02852368e+34 8.60085758e+33
1.12684660e+03 3.02337682e+34 8.55288817e+33
1.12967149e+03 3.01817478e+34 8.50518941e+33
1.13249637e+03 3.01291860e+34 8.45776041e+33
1.13532126e+03 3.00760933e+34 8.41060023e+33
1.13814614e+03 3.00224797e+34 8.36370795e+33
1.14097103e+03 2.99683555e+34 8.31708261e+33
1.14379591e+03 2.99137307e+34 8.27072325e+33
1.14662080e+03 2.98586152e+34 8.22462888e+33
1.14944568e+03 2.98030189e+34 8.17879851e+33
1.15227057e+03 2.97469513e+34 8.13323116e+33
1.15509545e+03 2.96904222e+34 8.08792579e+33
1.15792034e+03 2.96334411e+34 8.04288138e+33
1.16074522e+03 2.95760172e+34 7.99809691e+33
1.16357011e+03 2.95181600e+34 7.95357132e+33
1.16639499e+03 2.94598786e+34 7.90930356e+33
1.16921988e+03 2.94011821e+34 7.86529256e+33
1.17204476e+03 2.93420795e+34 7.82153725e+33
1.17486965e+03 2.92825796e+34 7.77803656e+33
1.17769453e+03 2.92226913e+34 7.73478938e+33
1.18051942e+03 2.91624232e+34 7.69179463e+33
1.18334430e+03 2.91017839e+34 7.64905120e+33
1.18616919e+03 2.90407819e+34 7.60655798e+33
1.18899407e+03 2.89794256e+34 7.56431386e+33
1.19181896e+03 2.89177233e+34 7.52231770e+33
1.19464384e+03 2.88556831e+34 7.48056839e+33
1.19746873e+03 2.87933131e+34 7.43906478e+33
1.20029361e+03 2.87306214e+34 7.39780574e+33
1.20311850e+03 2.86676158e+34 7.35679013e+33
1.20594338e+03 2.86043042e+34 7.31601680e+33
1.20876827e+03 2.85406942e+34 7.27548459e+33
1.21159315e+03 2.84767934e+34 7.23519235e+33
1.21441804e+03 2.84126095e+34 7.19513893e+33
1.21724292e+03 2.83481497e+34 7.15532315e+33
1.22006781e+03 2.82834215e+34 7.11574386e+33
1.22289269e+03 2.82184322e+34 7.07639988e+33
1.22571758e+03 2.81531888e+34 7.03729005e+33
1.22854246e+03 2.80876984e+34 6.99841319e+33
1.23136735e+03 2.80219680e+34 6.95976813e+33
1.23419223e+03 2.79560045e+34 6.92135370e+33
1.23701712e+03 2.78898147e+34 6.88316872e+33
1.23984200e+03 2.78234054e+34 6.84521200e+33
