# tabulated Planck B_E (arbitrary normalization); shape = E^3/(exp(E*ev2erg/(kB*T))-1)
# col1 = E [eV]; col2 = B_E(4e4 K)
1.00000000e+01 5.81575055e+01
1.00602786e+01 5.81304108e+01
1.01209205e+01 5.80979333e+01
1.01819280e+01 5.80600414e+01
1.02433032e+01 5.80167048e+01
1.03050483e+01 5.79678946e+01
1.03671657e+01 5.79135834e+01
1.04296575e+01 5.78537451e+01
1.04925260e+01 5.77883552e+01
1.05557734e+01 5.77173905e+01
1.06194021e+01 5.76408295e+01
1.06834144e+01 5.75586524e+01
1.07478125e+01 5.74708407e+01
1.08125988e+01 5.73773777e+01
1.08777756e+01 5.72782484e+01
1.09433453e+01 5.71734394e+01
1.10093102e+01 5.70629390e+01
1.10756727e+01 5.69467374e+01
1.11424353e+01 5.68248264e+01
1.12096003e+01 5.66971998e+01
1.12771702e+01 5.65638530e+01
1.13451474e+01 5.64247835e+01
1.14135343e+01 5.62799904e+01
1.14823335e+01 5.61294750e+01
1.15515473e+01 5.59732404e+01
1.16211784e+01 5.58112917e+01
1.16912292e+01 5.56436358e+01
1.17617023e+01 5.54702819e+01
1.18326001e+01 5.52912410e+01
1.19039254e+01 5.51065261e+01
1.19756805e+01 5.49161525e+01
1.20478682e+01 5.47201375e+01
1.21204911e+01 5.45185002e+01
1.21935516e+01 5.43112623e+01
1.22670526e+01 5.40984472e+01
1.23409967e+01 5.38800806e+01
1.24153865e+01 5.36561903e+01
1.24902246e+01 5.34268065e+01
1.25655139e+01 5.31919611e+01
1.26412571e+01 5.29516887e+01
1.27174567e+01 5.27060256e+01
1.27941158e+01 5.24550106e+01
1.28712369e+01 5.21986846e+01
1.29488228e+01 5.19370907e+01
1.30268765e+01 5.16702741e+01
1.31054007e+01 5.13982824e+01
1.31843981e+01 5.11211651e+01
1.32638718e+01 5.08389741e+01
1.33438245e+01 5.05517634e+01
1.34242592e+01 5.02595893e+01
1.35051787e+01 4.99625101e+01
1.35865860e+01 4.96605863e+01
1.36684840e+01 4.93538806e+01
1.37508757e+01 4.90424578e+01
1.38337640e+01 4.87263848e+01
1.39171520e+01 4.84057305e+01
1.40010426e+01 4.80805661e+01
1.40854389e+01 4.77509648e+01
1.41703439e+01 4.74170017e+01
1.42557607e+01 4.70787539e+01
1.43416924e+01 4.67363008e+01
1.44281421e+01 4.63897235e+01
1.45151129e+01 4.60391050e+01
1.46026079e+01 4.56845303e+01
1.46906303e+01 4.53260863e+01
1.47791834e+01 4.49638618e+01
1.48682702e+01 4.45979471e+01
1.49578940e+01 4.42284346e+01
1.50480580e+01 4.38554182e+01
1.51387656e+01 4.34789937e+01
1.52300199e+01 4.30992583e+01
1.53218243e+01 4.27163110e+01
1.54141821e+01 4.23302522e+01
1.55070966e+01 4.19411838e+01
1.56005711e+01 4.15492094e+01
1.56946091e+01 4.11544337e+01
1.57892140e+01 4.07569630e+01
1.58843891e+01 4.03569046e+01
1.59801380e+01 3.99543673e+01
1.60764640e+01 3.95494611e+01
1.61733706e+01 3.91422970e+01
1.62708614e+01 3.87329870e+01
1.63689398e+01 3.83216444e+01
1.64676094e+01 3.79083831e+01
1.65668739e+01 3.74933181e+01
1.66667366e+01 3.70765652e+01
1.67672013e+01 3.66582410e+01
1.68682716e+01 3.62384625e+01
1.69699512e+01 3.58173477e+01
1.70722436e+01 3.53950150e+01
1.71751526e+01 3.49715832e+01
1.72786820e+01 3.45471715e+01
1.73828355e+01 3.41218996e+01
1.74876167e+01 3.36958874e+01
1.75930296e+01 3.32692550e+01
1.76990778e+01 3.28421225e+01
1.78057654e+01 3.24146103e+01
1.79130960e+01 3.19868384e+01
1.80210736e+01 3.15589272e+01
1.81297020e+01 3.11309964e+01
1.82389853e+01 3.07031658e+01
1.83489273e+01 3.02755548e+01
1.84595320e+01 2.98482824e+01
1.85708034e+01 2.94214670e+01
1.86827456e+01 2.89952265e+01
1.87953625e+01 2.85696784e+01
1.89086583e+01 2.81449393e+01
1.90226370e+01 2.77211248e+01
1.91373027e+01 2.72983502e+01
1.92526597e+01 2.68767293e+01
1.93687119e+01 2.64563754e+01
1.94854638e+01 2.60374003e+01
1.96029194e+01 2.56199150e+01
1.97210830e+01 2.52040291e+01
1.98399589e+01 2.47898509e+01
1.99595513e+01 2.43774875e+01
2.00798646e+01 2.39670444e+01
2.02009032e+01 2.35586258e+01
2.03226714e+01 2.31523342e+01
2.04451735e+01 2.27482706e+01
2.05684141e+01 2.23465341e+01
2.06923976e+01 2.19472224e+01
2.08171284e+01 2.15504310e+01
2.09426111e+01 2.11562539e+01
2.10688502e+01 2.07647830e+01
2.11958502e+01 2.03761083e+01
2.13236157e+01 1.99903176e+01
2.14521515e+01 1.96074968e+01
2.15814620e+01 1.92277297e+01
2.17115520e+01 1.88510977e+01
2.18424261e+01 1.84776802e+01
2.19740891e+01 1.81075543e+01
2.21065458e+01 1.77407947e+01
2.22398009e+01 1.73774738e+01
2.23738593e+01 1.70176616e+01
2.25087257e+01 1.66614258e+01
2.26444051e+01 1.63088314e+01
2.27809023e+01 1.59599411e+01
2.29182224e+01 1.56148150e+01
2.30563701e+01 1.52735109e+01
2.31953506e+01 1.49360837e+01
2.33351689e+01 1.46025860e+01
2.34758300e+01 1.42730675e+01
2.36173389e+01 1.39475757e+01
2.37597009e+01 1.36261550e+01
2.39029210e+01 1.33088476e+01
2.40470044e+01 1.29956928e+01
2.41919563e+01 1.26867274e+01
2.43377820e+01 1.23819852e+01
2.44844866e+01 1.20814979e+01
2.46320756e+01 1.17852941e+01
2.47805543e+01 1.14934000e+01
2.49299279e+01 1.12058391e+01
2.50802020e+01 1.09226321e+01
2.52313819e+01 1.06437973e+01
2.53834730e+01 1.03693504e+01
2.55364810e+01 1.00993044e+01
2.56904113e+01 9.83366971e+00
2.58452694e+01 9.57245439e+00
2.60010610e+01 9.31566381e+00
2.61577917e+01 9.06330090e+00
2.63154671e+01 8.81536613e+00
2.64740930e+01 8.57185753e+00
2.66336751e+01 8.33277074e+00
2.67942191e+01 8.09809903e+00
2.69557308e+01 7.86783334e+00
2.71182161e+01 7.64196232e+00
2.72816808e+01 7.42047239e+00
2.74461309e+01 7.20334775e+00
2.76115723e+01 6.99057044e+00
2.77780109e+01 6.78212039e+00
2.79454528e+01 6.57797547e+00
2.81139040e+01 6.37811152e+00
2.82833706e+01 6.18250243e+00
2.84538587e+01 5.99112017e+00
2.86253745e+01 5.80393484e+00
2.87979242e+01 5.62091476e+00
2.89715140e+01 5.44202646e+00
2.91461501e+01 5.26723483e+00
2.93218390e+01 5.09650307e+00
2.94985869e+01 4.92979286e+00
2.96764001e+01 4.76706431e+00
2.98552852e+01 4.60827612e+00
3.00352486e+01 4.45338556e+00
3.02162968e+01 4.30234859e+00
3.03984364e+01 4.15511989e+00
3.05816738e+01 4.01165293e+00
3.07660158e+01 3.87190002e+00
3.09514689e+01 3.73581241e+00
3.11380400e+01 3.60334032e+00
3.13257356e+01 3.47443300e+00
3.15145627e+01 3.34903882e+00
3.17045280e+01 3.22710530e+00
3.18956384e+01 3.10857920e+00
3.20879007e+01 2.99340658e+00
3.22813220e+01 2.88153283e+00
3.24759092e+01 2.77290277e+00
3.26716694e+01 2.66746068e+00
3.28686096e+01 2.56515040e+00
3.30667368e+01 2.46591533e+00
3.32660584e+01 2.36969855e+00
3.34665815e+01 2.27644284e+00
3.36683133e+01 2.18609074e+00
3.38712611e+01 2.09858463e+00
3.40754322e+01 2.01386673e+00
3.42808340e+01 1.93187924e+00
3.44874740e+01 1.85256431e+00
3.46953596e+01 1.77586413e+00
3.49044983e+01 1.70172098e+00
3.51148976e+01 1.63007728e+00
3.53265652e+01 1.56087562e+00
3.55395087e+01 1.49405882e+00
3.57537358e+01 1.42956998e+00
3.59692542e+01 1.36735251e+00
3.61860718e+01 1.30735016e+00
3.64041962e+01 1.24950712e+00
3.66236356e+01 1.19376798e+00
3.68443976e+01 1.14007782e+00
3.70664904e+01 1.08838223e+00
3.72899219e+01 1.03862733e+00
3.75147002e+01 9.90759840e-01
3.77408335e+01 9.44727070e-01
3.79683299e+01 9.00476974e-01
3.81971975e+01 8.57958171e-01
3.84274448e+01 8.17119970e-01
3.86590800e+01 7.77912398e-01
3.88921114e+01 7.40286218e-01
3.91265475e+01 7.04192955e-01
3.93623967e+01 6.69584915e-01
3.95996677e+01 6.36415200e-01
3.98383688e+01 6.04637731e-01
4.00785088e+01 5.74207256e-01
4.03200964e+01 5.45079369e-01
4.05631401e+01 5.17210518e-01
4.08076490e+01 4.90558022e-01
4.10536317e+01 4.65080072e-01
4.13010971e+01 4.40735747e-01
4.15500542e+01 4.17485013e-01
4.18005120e+01 3.95288736e-01
4.20524796e+01 3.74108677e-01
4.23059659e+01 3.53907505e-01
4.25609802e+01 3.34648788e-01
4.28175318e+01 3.16297000e-01
4.30756297e+01 2.98817517e-01
4.33352835e+01 2.82176616e-01
4.35965024e+01 2.66341473e-01
4.38592959e+01 2.51280155e-01
4.41236735e+01 2.36961618e-01
4.43896447e+01 2.23355700e-01
4.46572192e+01 2.10433113e-01
4.49264065e+01 1.98165437e-01
4.51972165e+01 1.86525109e-01
4.54696589e+01 1.75485415e-01
4.57437435e+01 1.65020479e-01
4.60194802e+01 1.55105252e-01
4.62968791e+01 1.45715500e-01
4.65759501e+01 1.36827794e-01
4.68567033e+01 1.28419494e-01
4.71391488e+01 1.20468738e-01
4.74232969e+01 1.12954428e-01
4.77091578e+01 1.05856215e-01
4.79967418e+01 9.91544835e-02
4.82860593e+01 9.28303404e-02
4.85771208e+01 8.68655955e-02
4.88699367e+01 8.12427485e-02
4.91645177e+01 7.59449725e-02
4.94608744e+01 7.09560981e-02
4.97590175e+01 6.62605974e-02
5.00589578e+01 6.18435680e-02
5.03607061e+01 5.76907164e-02
5.06642732e+01 5.37883420e-02
5.09696702e+01 5.01233203e-02
5.12769081e+01 4.66830869e-02
5.15859980e+01 4.34556210e-02
5.18969511e+01 4.04294292e-02
5.22097785e+01 3.75935292e-02
5.25244916e+01 3.49374339e-02
5.28411017e+01 3.24511350e-02
5.31596204e+01 3.01250879e-02
5.34800590e+01 2.79501953e-02
5.38024292e+01 2.59177923e-02
5.41267425e+01 2.40196311e-02
5.44530108e+01 2.22478656e-02
5.47812458e+01 2.05950371e-02
5.51114593e+01 1.90540596e-02
5.54436634e+01 1.76182055e-02
5.57778699e+01 1.62810916e-02
5.61140909e+01 1.50366659e-02
5.64523387e+01 1.38791934e-02
5.67926253e+01 1.28032437e-02
5.71349632e+01 1.18036782e-02
5.74793646e+01 1.08756371e-02
5.78258420e+01 1.00145282e-02
5.81744079e+01 9.21601425e-03
5.85250749e+01 8.47600206e-03
5.88778558e+01 7.79063121e-03
5.92327631e+01 7.15626329e-03
5.95898097e+01 6.56947147e-03
5.99490086e+01 6.02703042e-03
6.03103727e+01 5.52590650e-03
6.06739150e+01 5.06324840e-03
6.10396487e+01 4.63637797e-03
6.14075870e+01 4.24278151e-03
6.17777432e+01 3.88010127e-03
6.21501306e+01 3.54612736e-03
6.25247628e+01 3.23878991e-03
6.29016531e+01 2.95615160e-03
6.32808153e+01 2.69640043e-03
6.36622631e+01 2.45784283e-03
6.40460101e+01 2.23889707e-03
6.44320703e+01 2.03808692e-03
6.48204576e+01 1.85403561e-03
6.52111861e+01 1.68546008e-03
6.56042699e+01 1.53116544e-03
6.59997230e+01 1.39003978e-03
6.63975600e+01 1.26104912e-03
6.67977950e+01 1.14323268e-03
6.72004426e+01 1.03569836e-03
6.76055173e+01 9.37618446e-04
6.80130337e+01 8.48225557e-04
6.84230066e+01 7.66808760e-04
6.88354507e+01 6.92709929e-04
6.92503810e+01 6.25320286e-04
6.96678124e+01 5.64077132e-04
7.00877600e+01 5.08460756e-04
7.05102391e+01 4.57991528e-04
7.09352647e+01 4.12227146e-04
7.13628524e+01 3.70760051e-04
7.17930175e+01 3.33214994e-04
7.22257756e+01 2.99246747e-04
7.26611423e+01 2.68537951e-04
7.30991333e+01 2.40797101e-04
7.35397644e+01 2.15756651e-04
7.39830516e+01 1.93171246e-04
7.44290109e+01 1.72816062e-04
7.48776584e+01 1.54485254e-04
7.53290102e+01 1.37990510e-04
7.57830828e+01 1.23159699e-04
7.62398924e+01 1.09835609e-04
7.66994556e+01 9.78747726e-05
7.71617890e+01 8.71463784e-05
7.76269092e+01 7.75312507e-05
7.80948332e+01 6.89209076e-05
7.85655777e+01 6.12166851e-05
7.90391598e+01 5.43289248e-05
7.95155966e+01 4.81762218e-05
7.99949053e+01 4.26847283e-05
8.04771032e+01 3.77875106e-05
8.09622077e+01 3.34239540e-05
8.14502363e+01 2.95392145e-05
8.19412067e+01 2.60837130e-05
8.24351366e+01 2.30126696e-05
8.29320439e+01 2.02856751e-05
8.34319464e+01 1.78662965e-05
8.39348623e+01 1.57217160e-05
8.44408097e+01 1.38223982e-05
8.49498069e+01 1.21417868e-05
8.54618722e+01 1.06560250e-05
8.59770242e+01 9.34370153e-06
8.64952814e+01 8.18561734e-06
8.70166626e+01 7.16457306e-06
8.75411867e+01 6.26517514e-06
8.80688725e+01 5.47365918e-06
8.85997391e+01 4.77772912e-06
8.91338057e+01 4.16641105e-06
8.96710915e+01 3.62992033e-06
9.02116161e+01 3.15954116e-06
9.07553989e+01 2.74751723e-06
9.13024595e+01 2.38695286e-06
9.18528177e+01 2.07172344e-06
9.24064934e+01 1.79639457e-06
9.29635065e+01 1.55614902e-06
9.35238773e+01 1.34672088e-06
9.40876259e+01 1.16433625e-06
9.46547727e+01 1.00565979e-06
9.52253382e+01 8.67746799e-07
9.57993429e+01 7.48000044e-07
9.63768077e+01 6.44131122e-07
9.69577534e+01 5.54125801e-07
9.75422009e+01 4.76213000e-07
9.81301714e+01 4.08837051e-07
9.87216861e+01 3.50632927e-07
9.93167663e+01 3.00404134e-07
9.99154336e+01 2.57103012e-07
1.00517710e+02 2.19813190e-07
1.01123616e+02 1.87733994e-07
1.01733175e+02 1.60166586e-07
1.02346408e+02 1.36501673e-07
1.02963337e+02 1.16208606e-07
1.03583986e+02 9.88257374e-08
1.04208375e+02 8.39518884e-08
1.04836528e+02 7.12388116e-08
1.05468468e+02 6.03845445e-08
1.06104217e+02 5.11275498e-08
1.06743798e+02 4.32415576e-08
1.07387234e+02 3.65310312e-08
1.08034549e+02 3.08271843e-08
1.08685766e+02 2.59844881e-08
1.09340909e+02 2.18776106e-08
1.10000000e+02 1.83987385e-08
